* Overschrijdingskansen piekwaarde Lith (Hydra-NL). Zonder statistische onzekerheid.
*
* Basisduur trapezia: B = 30 dagen.
* 
* Door: G.W.F. Rongen van HKV lijn in water
* Project: PR3490.10
*
* Piekwaarde    Overschrijdingskans
*      [m3/s]       [-]
        0           1.000e+00
        75          9.950e-01
        200         8.800e-01
        300         7.600e-01
        500         5.500e-01
        600         4.021e-01
        800         2.725e-01
        1000        1.847e-01
        1200        1.251e-01
        1400        8.481e-02
        1600        5.747e-02
        1800        3.895e-02
        2000        2.519e-02
        2200        1.571e-02
        2400        9.422e-03
        2600        5.512e-03
        2800        3.185e-03
        3000        1.739e-03
        3200        9.008e-04
        3400        4.241e-04
        3600        1.710e-04
        3800        6.800e-05
        4000        2.748e-05
        4200        1.118e-05
        4400        4.455e-06
        4600        1.792e-06
        4800        7.241e-07
        5000        2.926e-07
        5200        1.183e-07
        5400        4.779e-08
        5600        1.931e-08
        5800        7.804e-09
        6000        3.154e-09
        6200        1.274e-09
        6400        5.150e-10
        6600        2.081e-10
        6800        8.410e-11
        7000        3.399e-11
