1.336677939581746614e+04 2.776865693066927765e-01 5.269597416375303434e-01
1.343411833483921509e+04 0.000000000000000000e+00 0.000000000000000000e+00
1.350145727386096769e+04 0.000000000000000000e+00 0.000000000000000000e+00
1.356879621288271665e+04 0.000000000000000000e+00 0.000000000000000000e+00
1.363613515190446924e+04 0.000000000000000000e+00 0.000000000000000000e+00
1.370347409092621820e+04 0.000000000000000000e+00 0.000000000000000000e+00
1.377081302994796715e+04 1.521383195756951245e-01 3.900491245672718099e-01
1.383815196896971793e+04 6.982265149770253143e-02 2.642397613867045192e-01
1.390549090799146870e+04 6.432675232387004283e-02 2.536271916097918022e-01
1.397282984701321766e+04 0.000000000000000000e+00 0.000000000000000000e+00
1.404016878603497025e+04 0.000000000000000000e+00 0.000000000000000000e+00
1.410750772505672103e+04 4.107197020436598178e-01 6.408741702110172245e-01
1.417484666407847180e+04 1.246024316155411205e+00 1.116254592893310971e+00
1.424218560310022076e+04 1.121642749788011928e+00 1.059076366362696309e+00
1.430952454212197335e+04 5.054344856821968435e-01 7.109391575108215955e-01
1.437686348114372231e+04 1.982317766553526595e-01 4.452322727019601967e-01
1.444420242016547127e+04 7.482629902026702307e-02 2.735439617689760516e-01
1.451154135918722386e+04 3.539012687553811515e-02 1.881226378603545746e-01
1.457888029820897464e+04 0.000000000000000000e+00 0.000000000000000000e+00
1.464621923723072541e+04 6.376016899581687936e-02 2.525077602685051881e-01
1.471355817625247437e+04 6.677708239091517672e-01 8.171724566510741861e-01
1.478089711527422696e+04 1.216131793872727407e+00 1.102783656875965690e+00
1.484823605429597592e+04 7.748349109210052044e-01 8.802470737929238842e-01
1.491557499331772487e+04 3.973819604703754393e-01 6.303823922591552664e-01
1.498291393233947747e+04 6.858744688090093744e-01 8.281753852952944417e-01
1.505025287136122643e+04 6.098684882633927939e-01 7.809407712902386445e-01
1.511759181038297720e+04 2.345915805086083994e-01 4.843465500120842093e-01
1.518493074940472798e+04 4.517633404919790124e-02 2.125472513329633717e-01
1.525226968842648057e+04 1.088743954693287830e-01 3.299612029759389498e-01
1.531960862744822953e+04 2.941839913136229390e-01 5.423873074783580606e-01
1.538694756646997848e+04 5.683279154605985761e-01 7.538752651868866339e-01
1.545428650549173108e+04 3.924543551402227548e-01 6.264617746839967749e-01
1.552162544451348003e+04 2.088313502366362651e-01 4.569806891288036299e-01
1.558896438353522899e+04 1.102776766155994514e-01 3.320808284372939179e-01
1.565630332255698158e+04 3.560839587292217306e-02 1.887018703482352122e-01
1.572364226157873236e+04 1.725544805888571537e-02 1.313599941340045651e-01
1.579098120060048313e+04 0.000000000000000000e+00 0.000000000000000000e+00
1.585832013962223209e+04 1.622822910219805237e-02 1.273900667328424496e-01
1.592565907864398287e+04 1.574585758493560542e-02 1.254824991181463789e-01
1.599299801766573364e+04 9.169279643215402786e-02 3.028081842225437970e-01
1.606033695668748260e+04 1.083024887027514760e+00 1.040684816372140054e+00
1.612767589570923519e+04 1.152502396901055493e+00 1.073546644026730501e+00
1.619501483473098597e+04 9.934495736156530032e-01 9.967194056582088235e-01
1.626235377375273674e+04 5.845150816699485885e-01 7.645358602903781220e-01
1.632969271277448570e+04 6.208280279342862640e-01 7.879264102276850590e-01
1.639703165179623829e+04 7.189834427310251019e-01 8.479289137250982655e-01
1.646437059081798725e+04 4.868303328114507167e-01 6.977322787512777458e-01
1.653170952983973621e+04 4.977546318598446429e-01 7.055172796323593287e-01
1.659904846886148880e+04 1.771688675530001256e-01 4.209143232927576861e-01
1.666638740788323776e+04 0.000000000000000000e+00 0.000000000000000000e+00
1.673372634690498671e+04 1.790760549771425458e-01 4.231737881499071929e-01
1.680106528592673931e+04 7.413269192581720679e-01 8.610034374252939493e-01
1.686840422494849190e+04 1.391715542218825874e+00 1.179709939866078194e+00
1.693574316397024086e+04 1.822941668903278245e+00 1.350163571165833964e+00
1.700308210299198981e+04 1.757922167833138705e+00 1.325866572409583943e+00
1.707042104201374241e+04 8.873577760224899968e-01 9.419966963968026130e-01
1.713775998103549136e+04 4.139481104508694886e-01 6.433879937105365654e-01
1.720509892005724396e+04 5.642441674362416726e-02 2.375382426970953365e-01
1.727243785907899291e+04 6.433783196786295455e-02 2.536490330513068714e-01
1.733977679810074187e+04 2.696207283125728188e-02 1.642013179948847990e-01
1.740711573712249083e+04 8.792272093284253867e-03 9.376711626836059521e-02
1.747445467614423978e+04 0.000000000000000000e+00 0.000000000000000000e+00
1.754179361516599602e+04 1.685225185960506980e-02 1.298162234068033216e-01
1.760913255418774497e+04 8.254126671916016400e-03 9.085222436416191816e-02
1.767647149320949393e+04 8.088890426964083502e-03 8.993825897227543387e-02
1.774381043223124288e+04 7.137022991933127114e-02 2.671520726465195783e-01
1.781114937125299548e+04 3.655223239070247709e-01 6.045844224812815249e-01
1.787848831027474807e+04 8.468946075106484894e-01 9.202687691705333517e-01
1.794582724929649703e+04 1.040759486727669492e+00 1.020176203764658229e+00
1.801316618831824599e+04 6.982622035497488833e-01 8.356208491593235532e-01
1.808050512733999858e+04 3.536487808800387600e-01 5.946837654418007935e-01
1.814784406636175117e+04 3.119060093269695466e-01 5.584854602646066590e-01
1.821518300538350013e+04 3.760654530086746106e-01 6.132417573915482922e-01
1.828252194440524909e+04 1.108619958039426479e+00 1.052910232659663325e+00
1.834986088342699804e+04 1.082889748878538727e+00 1.040619886835985275e+00
1.841719982244874700e+04 8.265054550101814668e-01 9.091234542185023804e-01
1.848453876147050323e+04 5.200995631134210928e-01 7.211792863868325965e-01
1.855187770049225219e+04 3.708219708341900511e-01 6.089515340601335813e-01
1.861921663951400114e+04 1.509280758489980612e-01 3.884946278251451557e-01
1.868655557853575010e+04 2.474675171447466432e-02 1.573110031576770151e-01
1.875389451755750270e+04 2.435006174922485847e-02 1.560450632004257154e-01
1.882123345657925529e+04 2.396438407660181000e-02 1.548043412718190237e-01
1.888857239560100425e+04 4.128166241876583820e-02 2.031788926507028525e-01
1.895591133462275320e+04 4.180565771383991658e-01 6.465729480409764252e-01
1.902325027364450216e+04 1.949819218977026924e+00 1.396359272886826597e+00
1.909058921266625475e+04 2.427465715815291247e+00 1.558032642730983186e+00
1.915792815168800735e+04 2.280614730430262860e+00 1.510170430921709883e+00
1.922526709070975630e+04 1.711540144481164427e+00 1.308258439484020430e+00
1.929260602973150526e+04 9.809437384763299850e-01 9.904260388723279407e-01
1.935994496875325422e+04 5.419958197235295039e-01 7.362036537015620441e-01
1.942728390777500681e+04 1.257524386583851184e-01 3.546159029970104570e-01
1.949462284679675577e+04 6.717933638079895409e-02 2.591897690511701935e-01
1.956196178581850836e+04 6.116839487149128979e-02 2.473224512079145732e-01
1.962930072484025732e+04 2.011471183829059706e-02 1.418263439502358281e-01
1.969663966386200991e+04 3.472947418272625403e-02 1.863584561610399648e-01
1.976397860288375887e+04 3.916160810130860787e-02 1.978929207963453230e-01
1.983131754190551146e+04 3.381008969663702735e-02 1.838752014183452355e-01
1.989865648092726042e+04 1.429681848508751636e-02 1.195693041089037900e-01
1.996599541994900937e+04 4.701825237348184611e-02 2.168369257610009704e-01
2.003333435897076197e+04 4.174684946834642668e-02 2.043204577822456403e-01
2.010067329799251456e+04 2.745374273108814114e-02 1.656917099045336628e-01
2.016801223701426352e+04 4.061696631380894151e-02 2.015365135994193480e-01
2.023535117603601248e+04 2.670378464292520043e-02 1.634129267926047457e-01
2.030269011505776507e+04 7.460494689900040721e-02 2.731390614668660066e-01
2.037002905407951403e+04 6.446787857777872555e-01 8.029189160667391523e-01
2.043736799310126298e+04 2.269096492596127668e+00 1.506352048027328694e+00
2.050470693212301558e+04 3.544120660457637850e+00 1.882583506901523318e+00
2.057204587114476453e+04 3.033175956870966417e+00 1.741601549399565352e+00
2.063938481016651349e+04 2.413565200227862917e+00 1.553565318944737150e+00
2.070672374918826608e+04 1.734717151568370808e+00 1.317086615059302357e+00
2.077406268821001504e+04 9.203081782292880098e-01 9.593269402186556105e-01
2.084140162723176763e+04 5.513044635779608127e-01 7.424987970212213462e-01
2.090874056625351659e+04 1.888643200035637626e-01 4.345852275487096517e-01
2.097607950527526555e+04 3.078192995093369522e-01 5.548146532936354403e-01
2.104341844429701450e+04 9.631586975957071584e-01 9.814064894811461714e-01
2.111075738331876710e+04 1.571183931137783762e+00 1.253468759538020505e+00
2.117809632234051969e+04 2.083004242156440533e+00 1.443261667943980475e+00
2.124543526136226865e+04 1.602483242064275171e+00 1.265892271113255196e+00
2.131277420038401760e+04 1.241142453727042572e+00 1.114065731331433939e+00
2.138011313940576656e+04 8.608511213682760177e-01 9.278206299540208146e-01
2.144745207842752279e+04 3.612298358685935296e-01 6.010239894285365203e-01
2.151479101744927175e+04 2.507834989790750924e-01 5.007828860684788719e-01
2.158212995647102071e+04 8.159571765329680371e-02 2.856496414373678183e-01
2.164946889549276966e+04 3.030025056903487557e-02 1.740696715945511119e-01
2.171680783451452589e+04 3.669618482560972617e-02 1.915624828237766641e-01
2.178414677353627485e+04 2.977012571481044839e-02 1.725402147756007754e-01
2.185148571255802381e+04 7.548607161626073869e-02 2.747472868223829190e-01
2.191882465157977276e+04 3.323775659969230856e-01 5.765219562140917464e-01
2.198616359060152536e+04 1.447180103736997125e+00 1.202987989855674789e+00
2.205350252962327795e+04 1.825019611697157540e+00 1.350932867205901333e+00
2.212084146864502691e+04 2.196618915550173412e+00 1.482099495833587133e+00
2.218818040766677586e+04 2.320448205046222512e+00 1.523301744581887718e+00
2.225551934668852482e+04 2.657184930807420908e+00 1.630087399745001608e+00
2.232285828571027378e+04 2.986424023047351994e+00 1.728127316793340862e+00
2.239019722473203001e+04 2.554758878338731165e+00 1.598361310323398454e+00
2.245753616375377896e+04 1.950361265459784388e+00 1.396553352170902373e+00
2.252487510277552792e+04 1.471960134846855173e+00 1.213243641997292732e+00
2.259221404179727688e+04 8.989000693532627206e-01 9.481034064664374261e-01
2.265955298081902947e+04 5.251900689217677831e-01 7.246999854572703237e-01
2.272689191984077843e+04 2.683582501604168113e-01 5.180330589454854584e-01
2.279423085886253102e+04 7.475312200207015478e-02 2.734101717238591744e-01
2.286156979788427998e+04 8.082491671462539717e-02 2.842972330407480541e-01
2.292890873690602893e+04 2.171383703235975349e-02 1.473561570900915885e-01
2.299624767592778153e+04 3.713301881790629505e-02 1.926992963606932729e-01
2.306358661494953412e+04 2.160010185535867627e-02 1.469697310855493100e-01
2.313092555397128308e+04 4.613528096047106453e-02 2.147912497297575218e-01
2.319826449299303204e+04 3.064093767944781749e-02 1.750455303041120736e-01
2.326560343201478099e+04 3.050793911949406523e-02 1.746652201197881893e-01
2.333294237103653359e+04 3.946364754585046652e-02 1.986545935684611019e-01
2.340028131005828254e+04 9.055901158666876394e-03 9.516249869915605064e-02
2.346762024908003514e+04 2.999658681285780407e-02 1.731952274540433379e-01
2.353495918810178409e+04 2.978756748787422109e-02 1.725907514552104394e-01
2.360229812712353669e+04 2.069188617969922386e-02 1.438467454609217988e-01
2.366963706614528564e+04 3.810852492988293927e-02 1.952140490074496249e-01
2.373697600516703824e+04 8.715622482596045717e-03 9.335749826658834571e-02
2.380431494418878719e+04 2.877489137039276890e-02 1.696316343445194996e-01
2.387165388321053615e+04 2.278765972270001619e-02 1.509558204333308062e-01
2.393899282223228874e+04 1.972815115517723844e-02 1.404569370133680328e-01
2.400633176125404134e+04 2.508534064981465111e-02 1.583835239215703738e-01
2.407367070027579030e+04 2.755534403243874164e-02 1.659980241823340030e-01
2.414100963929753925e+04 4.902042713138610175e-02 2.214055715906582678e-01
2.420834857831928821e+04 2.960046682595637510e-02 1.720478620208817921e-01
2.427568751734103716e+04 2.924382315891818976e-02 1.710082546514003488e-01
2.434302645636278612e+04 3.414184339552759490e-02 1.847751157367452379e-01
2.441036539538454235e+04 3.891661342099233395e-02 1.972729414313892649e-01
2.447770433440629131e+04 2.101768310603970846e-01 4.584504674012200298e-01
2.454504327342804027e+04 7.825503789606220728e-01 8.846187760615428219e-01
2.461238221244978922e+04 1.816995301981322308e+00 1.347959681140842747e+00
2.467972115147154182e+04 2.236427311319433286e+00 1.495468926898661177e+00
2.474706009049329441e+04 2.480384560594519616e+00 1.574923668180308933e+00
2.481439902951504337e+04 2.675931769391474813e+00 1.635827548793415742e+00
2.488173796853679232e+04 2.506484296965219016e+00 1.583188016934570896e+00
2.494907690755854128e+04 2.139806158903130751e+00 1.462807628809451810e+00
2.501641584658029387e+04 1.497120507731094730e+00 1.223568758889787444e+00
2.508375478560204647e+04 8.113276844839804047e-01 9.007373004844311248e-01
2.515109372462379542e+04 5.045911645386571553e-01 7.103458063075034357e-01
2.521843266364554438e+04 1.896214797122781071e-01 4.354554853395213865e-01
2.528577160266729334e+04 1.133134686205256036e-01 3.366206598242680870e-01
2.535311054168904957e+04 3.148653335878376369e-02 1.774444514736478462e-01
2.542044948071079853e+04 6.028686852074548186e-02 2.455338439416152596e-01
2.548778841973254748e+04 4.213499082384229710e-02 2.052680949973529068e-01
2.555512735875429644e+04 9.474310215413393743e-02 3.078036746923823452e-01
2.562246629777605267e+04 4.883394993954217056e-01 6.988129216002103572e-01
2.568980523679780163e+04 1.419509534851632671e+00 1.191431716403266172e+00
2.575714417581955058e+04 2.249588342004451569e+00 1.499862774391194531e+00
2.582448311484129954e+04 2.489730993155259586e+00 1.577888143423119782e+00
2.589182205386304850e+04 2.796463530573215728e+00 1.672262996831902493e+00
2.595916099288480109e+04 3.000411567831753779e+00 1.732169612893539323e+00
2.602649993190655368e+04 2.960876984429224645e+00 1.720719902956092673e+00
2.609383887092830264e+04 2.305102024276268313e+00 1.518256244603086946e+00
2.616117780995005160e+04 1.447176165334566722e+00 1.202986352929477976e+00
2.622851674897180055e+04 1.049242827400993949e+00 1.024325547568249339e+00
2.629585568799355678e+04 4.504297465106634757e-01 6.711406309490309807e-01
2.636319462701530574e+04 2.159552549710778424e-01 4.647098610650282069e-01
2.643053356603705470e+04 1.178632246969448377e-01 3.433121388721127598e-01
2.649787250505880365e+04 3.706464227973618047e-02 1.925217968951468683e-01
2.656521144408055625e+04 2.870829560236251229e-02 1.694352253882365211e-01
2.663255038310230520e+04 2.858947421896422189e-02 1.690842222650127125e-01
2.669988932212405780e+04 3.253895927167047009e-02 1.803855849885751539e-01
2.676722826114580675e+04 3.645604816117720831e-02 1.909346698773619899e-01
2.683456720016755571e+04 2.420483363068327842e-02 1.555790269627730926e-01
2.690190613918930831e+04 3.013345891913627242e-02 1.735899159488714927e-01
2.696924507821105726e+04 2.000837629727093489e-02 1.414509678201988641e-01
2.703658401723280986e+04 2.391485446714473190e-02 1.546442836549244415e-01
2.710392295625455881e+04 2.977680098302411260e-02 1.725595577852009621e-01
2.717126189527630777e+04 3.559507886280137423e-02 1.886665812029289235e-01
2.723860083429806036e+04 3.349123851449366945e-02 1.830061160576161305e-01
2.730593977331981296e+04 4.710814237276118865e-02 2.170441023680698689e-01
2.737327871234156191e+04 2.542564032995718593e-02 1.594541950842221778e-01
2.744061765136331087e+04 3.898021286853484146e-02 1.974340722077495003e-01
2.750795659038506346e+04 3.690606506219855365e-02 1.921095132006704065e-01
2.757529552940680878e+04 4.452924456448186658e-02 2.110195359782640334e-01
2.764263446842855774e+04 4.631746100023453883e-02 2.152149181637614539e-01
2.770997340745031397e+04 8.657716029083535603e-02 2.942399705866545756e-01
2.777731234647206293e+04 1.668802601651627471e-01 4.085098042460703627e-01
2.784465128549381188e+04 6.292311363861752271e-01 7.932409069041858052e-01
2.791199022451556084e+04 1.933798151897598183e+00 1.390610711844834757e+00
2.797932916353731707e+04 3.716048599205418412e+00 1.927705527098321658e+00
2.804666810255906603e+04 5.314081114057756849e+00 2.305229080603000913e+00
2.811400704158081498e+04 6.192331239639386808e+00 2.488439518983611265e+00
2.818134598060256394e+04 6.781056257373970553e+00 2.604046131959641297e+00
2.824868491962432017e+04 7.018560395793652873e+00 2.649256574172017320e+00
2.831602385864606913e+04 6.787531268026919307e+00 2.605289094904233327e+00
2.838336279766781809e+04 5.882164581712145512e+00 2.425317418754119547e+00
2.845070173668956704e+04 4.399422169741422195e+00 2.097479956934373835e+00
2.851804067571132327e+04 2.919127748490710772e+00 1.708545506707594530e+00
2.858537961473306859e+04 1.376545311424532736e+00 1.173262677930450915e+00
2.865271855375482119e+04 7.047615192231072578e-01 8.395007559395686325e-01
2.872005749277657014e+04 4.057362839855486736e-01 6.369743197221915398e-01
2.878739643179831910e+04 1.820250401723327860e-01 4.266439266793010110e-01
2.885473537082006806e+04 9.531127688915640161e-02 3.087252449819359867e-01
2.892207430984182065e+04 6.029363468380086882e-02 2.455476220283977218e-01
2.898941324886357324e+04 6.556130078509735115e-02 2.560494108274755654e-01
2.905675218788532220e+04 5.445366901437578844e-02 2.333530994316891094e-01
2.912409112690707116e+04 7.236087893976865526e-02 2.689997749808885064e-01
2.919143006592882011e+04 4.507140900084891100e-02 2.123002802655920007e-01
2.925876900495057635e+04 3.413624471474626526e-02 1.847599651297495427e-01
2.932610794397232530e+04 4.117925529881528296e-02 2.029267239641326381e-01
2.939344688299407426e+04 2.676231223443688301e-02 1.635919076068155786e-01
2.946078582201582321e+04 4.267014579641975613e-02 2.065675332583021273e-01
2.952812476103757217e+04 2.126077672085757708e-02 1.458107565334518796e-01
2.959546370005932840e+04 1.765603364053358951e-02 1.328760085212284947e-01
2.966280263908107736e+04 2.287426096205833967e-02 1.512423914187366325e-01
2.973014157810282632e+04 2.630432371283219703e-02 1.621860774321649268e-01
2.979748051712457527e+04 4.719089628009713600e-02 2.172346571799655124e-01
2.986481945614633150e+04 2.264785595804931495e-02 1.504920461620790073e-01
2.993215839516808046e+04 4.341590431210636675e-02 2.083648346341252511e-01
2.999949733418982942e+04 3.462605393418984046e-02 1.860807726074616142e-01
3.006683627321157837e+04 3.107075117761880223e-02 1.762689739506609898e-01
3.013417521223332733e+04 2.581784379092356280e-02 1.606793197363106940e-01
3.020151415125508356e+04 1.888060676159554127e-02 1.374067202199206195e-01
3.026885309027683252e+04 2.910128322447921162e-02 1.705909822484154847e-01
3.033619202929858147e+04 3.073415481526550752e-02 1.753115934993048630e-01
3.040353096832033043e+04 1.703252012877538857e-02 1.305086975215651590e-01
3.047086990734208302e+04 2.888686322857058827e-02 1.699613580452056516e-01
3.053820884636383562e+04 1.864909273170194809e-02 1.365616810518307522e-01
3.060554778538558458e+04 1.015003154956559128e-02 1.007473649757927442e-01
3.067288672440733353e+04 1.181681380149963295e-02 1.087051691572191725e-01
3.074022566342908249e+04 1.684687496912142673e-02 1.297955121301249959e-01
3.080756460245083508e+04 2.522056246306892541e-02 1.588098311285196518e-01
3.087490354147258040e+04 2.852849758107684625e-02 1.689038116238850418e-01
3.094224248049433663e+04 1.674999091426043057e-02 1.294217559541688267e-01
3.100958141951608923e+04 1.504717841804161481e-02 1.226669410152613771e-01
3.107692035853783455e+04 1.501973118502799957e-02 1.225550128922844179e-01
3.114425929755958350e+04 1.832415057762537547e-02 1.353667262573243213e-01
3.121159823658133246e+04 2.327934671634247082e-02 1.525757081462919829e-01
3.127893717560308505e+04 1.493801269894238191e-02 1.222211630567406337e-01
3.134627611462483765e+04 1.822398424633414615e-02 1.349962378969656596e-01
3.141361505364658660e+04 2.976548663341960221e-02 1.725267707731747979e-01
3.148095399266833556e+04 1.980608768418458746e-02 1.407341027760669883e-01
3.154829293169009179e+04 1.317863686299713087e-02 1.147982441633892403e-01
3.161563187071184075e+04 2.466149302021113793e-02 1.570397816485082088e-01
3.168297080973358970e+04 1.640817761263532043e-02 1.280944089827316390e-01
3.175030974875533866e+04 1.801232117021060383e-02 1.342099890850550759e-01
3.181764868777708762e+04 2.287744769158023966e-02 1.512529262248510642e-01
3.188498762679884385e+04 1.467613693263646046e-02 1.211451069281647003e-01
3.195232656582059280e+04 2.766284328707830503e-02 1.663215057864685931e-01
3.201966550484234176e+04 2.435611790130513821e-02 1.560644671323525023e-01
3.208700444386409072e+04 1.620235012726994536e-02 1.272884524506050496e-01
3.215434338288584695e+04 3.233430414063329789e-02 1.798174189021555791e-01
3.222168232190759227e+04 1.290551547252039022e-02 1.136024448351371924e-01
3.228902126092934486e+04 2.897395316112965497e-02 1.702173703272661098e-01
3.235636019995109382e+04 2.248600526662099600e-02 1.499533436326812852e-01
3.242369913897285005e+04 1.762897085019261151e-02 1.327741347182974929e-01
3.249103807799459901e+04 1.918968357497988220e-02 1.385268334113643196e-01
3.255837701701634433e+04 3.670030592220255294e-02 1.915732390554655551e-01
3.262571595603809692e+04 3.662089695565172442e-02 1.913658719721249568e-01
3.269305489505985315e+04 3.336453925275573856e-02 1.826596267727374490e-01
3.276039383408159483e+04 4.756178787101882077e-02 2.180866522073710567e-01
3.282773277310334379e+04 2.689452771210978227e-02 1.639955112559785266e-01
3.289507171212510002e+04 2.683808420326948621e-02 1.638233322920440715e-01
3.296241065114684898e+04 2.993327867861819702e-02 1.730123656812373456e-01
3.302974959016860521e+04 4.716639785860628903e-02 2.171782628593531550e-01
3.309708852919035417e+04 9.100494467001679633e-02 3.016702581793849758e-01
3.316442746821209585e+04 2.803058064048736808e-01 5.294391432496030614e-01
3.323176640723385208e+04 7.877177812811040347e-01 8.875346648334948574e-01
3.329910534625560103e+04 1.499155076677971765e+00 1.224399884301681896e+00
3.336644428527734999e+04 2.365309244917923603e+00 1.537956190831820669e+00
3.343378322429909895e+04 3.727456012954989184e+00 1.930662065964675600e+00
3.350112216332084790e+04 5.078911193428970350e+00 2.253643981073534697e+00
3.356846110234260414e+04 5.721314377483476044e+00 2.391926917253843765e+00
3.363580004136435309e+04 5.893385818597607795e+00 2.427629670810111051e+00
3.370313898038610205e+04 6.059179878725295509e+00 2.461540143634731503e+00
3.377047791940785828e+04 5.202368441314256131e+00 2.280870106190673763e+00
3.383781685842960724e+04 4.563936891906703153e+00 2.136337260805677207e+00
3.390515579745135619e+04 3.444443822963446866e+00 1.855921286844743001e+00
3.397249473647310515e+04 2.248019770730405487e+00 1.499339778279228375e+00
3.403983367549485411e+04 1.212567846816360095e+00 1.101166584498621592e+00
3.410717261451660306e+04 6.455293500981906796e-01 8.034484115972789775e-01
3.417451155353835202e+04 3.109678502916675691e-01 5.576449141628277983e-01
3.424185049256010825e+04 1.714166483482761072e-01 4.140249368676675590e-01
3.430918943158185721e+04 1.039890957631203622e-01 3.224734031871781537e-01
3.437652837060361344e+04 9.932600254300827380e-02 3.151602807192052658e-01
3.444386730962536240e+04 6.108110536953493402e-02 2.471459191844666836e-01
3.451120624864711135e+04 3.662523809367018712e-02 1.913772141443964847e-01
3.457854518766886031e+04 2.897805537522395863e-02 1.702294198287239713e-01
3.464588412669060926e+04 4.115751436829580279e-02 2.028731484654778261e-01
3.471322306571235822e+04 2.285437904636007309e-02 1.511766484823634238e-01
3.478056200473411445e+04 6.244203371143019349e-02 2.498840405296628708e-01
3.484790094375585613e+04 3.806008961999254869e-02 1.950899526372195103e-01
3.491523988277761237e+04 3.956946760697110238e-02 1.989207571043582756e-01
3.498257882179936860e+04 4.107971906653764410e-02 2.026813239214152185e-01
3.504991776082111028e+04 1.673216604258273912e-02 1.293528741179829356e-01
3.511725669984286651e+04 1.672887284021267601e-02 1.293401439623934890e-01
3.518459563886461547e+04 1.824684807532932218e-02 1.350808945607383793e-01
3.525193457788636442e+04 2.280594373216853626e-02 1.510163690868262798e-01
3.531927351690811338e+04 2.888539419867628202e-02 1.699570363317632060e-01
3.538661245592986234e+04 3.800586531612003965e-02 1.949509305341219356e-01
3.545395139495161129e+04 4.712783126490534963e-02 2.170894545225662275e-01
3.552129033397336752e+04 5.321217205989135779e-02 2.306776366705090009e-01
3.558862927299511648e+04 3.953371672396780584e-02 1.988308746748547740e-01
3.565596821201686544e+04 3.345776423137663408e-02 1.829146364602259878e-01
3.572330715103862167e+04 4.107248376804981810e-02 2.026634741833116260e-01
3.579064609006037062e+04 2.891294520492401071e-02 1.700380698694383963e-01
3.585798502908211958e+04 3.044843306380186354e-02 1.744947938014251021e-01
3.592532396810386854e+04 7.311798832740933063e-02 2.704033807617969298e-01
3.599266290712561749e+04 7.164533943092009360e-02 2.676664705018543811e-01
3.606000184614737373e+04 1.449393602542522475e-01 3.807090230796378871e-01
3.612734078516912268e+04 3.161383628640985766e-01 5.622618276782610502e-01
3.619467972419087164e+04 6.513847617634068721e-01 8.070841107117688873e-01
3.626201866321262060e+04 1.212706560863463734e+00 1.101229567739380855e+00
3.632935760223437683e+04 1.829607773669651438e+00 1.352629947054866610e+00
3.639669654125612578e+04 2.714726911948160293e+00 1.647642835067163469e+00
3.646403548027787474e+04 3.642171936580115510e+00 1.908447519996322894e+00
3.653137441929962370e+04 5.092473348135125200e+00 2.256650914105929218e+00
3.659871335832137265e+04 6.022890225208169745e+00 2.454157742527600661e+00
3.666605229734312161e+04 7.357157367512694002e+00 2.712408038535628396e+00
3.673339123636487057e+04 7.527381033886088701e+00 2.743607303147826304e+00
3.680073017538661952e+04 6.736186925889142252e+00 2.595416522620047850e+00
3.686806911440837575e+04 5.342490460811916364e+00 2.311382802742098175e+00
3.693540805343012471e+04 3.726276344937914597e+00 1.930356533114521378e+00
3.700274699245188094e+04 2.561304159563658089e+00 1.600407497971581661e+00
3.707008593147362990e+04 1.611740861587141582e+00 1.269543564273058589e+00
3.713742487049537885e+04 9.095276157958800400e-01 9.536915726773934621e-01
3.720476380951712781e+04 5.203752295846749698e-01 7.213703830797844052e-01
3.727210274853887677e+04 2.577717624873465119e-01 5.077122831755663812e-01
3.733944168756062572e+04 1.914945351051148825e-01 4.376008856310906747e-01
3.740678062658237468e+04 9.921890349553906530e-02 3.149903228601460548e-01
3.747411956560413091e+04 7.381729202978994098e-02 2.716933787006778345e-01
3.754145850462587987e+04 4.988031171377919903e-02 2.233390062523320230e-01
3.760879744364762882e+04 5.646422460246856845e-02 2.376220204494284005e-01
3.767613638266938506e+04 3.720002069112354065e-02 1.928730688590906961e-01
3.774347532169113401e+04 3.405031400847940981e-02 1.845272717201427992e-01
3.781081426071288297e+04 3.901043537532017380e-02 1.975105956026667886e-01
3.787815319973463193e+04 2.118198423116131671e-02 1.455403182323074252e-01
3.794549213875638088e+04 2.776630836095716690e-02 1.666322548636882950e-01
3.801283107777812984e+04 1.473517809615863643e-02 1.213885418651968057e-01
3.808017001679988607e+04 2.297669429106567393e-02 1.515806527597294562e-01
3.814750895582163503e+04 3.619410683049427424e-02 1.902474883684256990e-01
3.821484789484338398e+04 2.803711777502876368e-02 1.674428791410036699e-01
3.828218683386513294e+04 1.818710712542962946e-02 1.348595829944228552e-01
3.834952577288688917e+04 2.320629242618231849e-02 1.523361166177683579e-01
3.841686471190863813e+04 1.495715814145781239e-02 1.222994609205527577e-01
3.848420365093038708e+04 2.666122178640166832e-02 1.632826438615006814e-01
3.855154258995213604e+04 3.174618133268237996e-02 1.781745810509523242e-01
3.861888152897388500e+04 2.178129653296478896e-02 1.475848790796834564e-01
3.868622046799563395e+04 2.520337183531698444e-02 1.587556985916316055e-01
3.875355940701738291e+04 2.022078932627582523e-02 1.421998218222365606e-01
3.882089834603913914e+04 2.028002616772782429e-02 1.424079568273059204e-01
3.888823728506088810e+04 1.525529650201770844e-02 1.235123334004248619e-01
3.895557622408264433e+04 2.890255430498611319e-02 1.700075124957309558e-01
3.902291516310439329e+04 2.216945832311943004e-02 1.488941178257872922e-01
3.909025410212614224e+04 2.052728974333534878e-02 1.432734788554230199e-01
3.915759304114789120e+04 2.917089309345974324e-02 1.707948860284163872e-01
3.922493198016964016e+04 3.614760809651213630e-02 1.901252431859381808e-01
3.929227091919138911e+04 2.072085288271476380e-02 1.439473962345785563e-01
3.935960985821314534e+04 2.078635968992431637e-02 1.441747539964064462e-01
3.942694879723489430e+04 3.127822364462208571e-02 1.768565058023653380e-01
3.949428773625664326e+04 5.055200934336544216e-02 2.248377400334860277e-01
3.956162667527839221e+04 2.623000926902977620e-02 1.619568129750328656e-01
3.962896561430014117e+04 2.982041446059907272e-02 1.726858837907692679e-01
3.969630455332189740e+04 2.111503808274544855e-02 1.453101444591720359e-01
3.976364349234364636e+04 2.823973545694704115e-02 1.680468251915133437e-01
3.983098243136539531e+04 2.655473248302037820e-02 1.629562287334251625e-01
3.989832137038714427e+04 3.373571711908898013e-02 1.836728535170316923e-01
3.996566030940889323e+04 3.383359243986382159e-02 1.839390998125842169e-01
4.003299924843064218e+04 3.750079884548974257e-02 1.936512299095715650e-01
4.010033818745239114e+04 2.865057740918746168e-02 1.692648144452575387e-01
4.016767712647414737e+04 1.974971929168273937e-02 1.405336945066297527e-01
4.023501606549590360e+04 1.800048965600160172e-02 1.341659034777525072e-01
4.030235500451765256e+04 2.526315365012460346e-02 1.589438694952548525e-01
4.036969394353940152e+04 5.426450212140644658e-02 2.329474235131319126e-01
4.043703288256115047e+04 3.263335278110601062e-02 1.806470392259613145e-01
4.050437182158289943e+04 3.633923204122496003e-02 1.906285184363162299e-01
4.057171076060464839e+04 3.823709694028089995e-02 1.955430820568216932e-01
4.063904969962639734e+04 3.284168093939058425e-02 1.812227384722750190e-01
4.070638863864815357e+04 2.376592887316703040e-02 1.541620215006505035e-01
4.077372757766990253e+04 2.381164372205485727e-02 1.543102191109028964e-01
4.084106651669165876e+04 3.853723649917698696e-02 1.963090331573587866e-01
4.090840545571340772e+04 1.103100265584178868e-02 1.050285801857846202e-01
4.097574439473514940e+04 2.210247662347945841e-02 1.486690170260080157e-01
4.104308333375690563e+04 3.875026493922273385e-02 1.968508697954437225e-01
4.111042227277865459e+04 3.142717872378296418e-02 1.772771240848151908e-01
4.117776121180040354e+04 4.445090419000014004e-02 2.108338307530367439e-01
4.124510015082215250e+04 2.783494587821487218e-02 1.668380828174876596e-01
4.131243908984390146e+04 5.206065377342507239e-02 2.281680384572411513e-01
4.137977802886565769e+04 4.471368099203926194e-02 2.114560970793683825e-01
4.144711696788740664e+04 7.841225249569856726e-02 2.800218786018309758e-01
4.151445590690915560e+04 8.793637879554454251e-02 2.965406865769764089e-01
4.158179484593090456e+04 1.893901805668195826e-01 4.351898213042437180e-01
4.164913378495266079e+04 2.931936970043748092e-01 5.414736346345727647e-01
4.171647272397440975e+04 5.142933694342031181e-01 7.171425028780563649e-01
4.178381166299615870e+04 7.874483627042012657e-01 8.873828726678250067e-01
4.185115060201790766e+04 1.255018023935217331e+00 1.120275869567499472e+00
4.191848954103965661e+04 1.776101374825852952e+00 1.332704533955614945e+00
4.198582848006140557e+04 2.543159020187331532e+00 1.594728509868476474e+00
4.205316741908316180e+04 3.371004961659987753e+00 1.836029673414889984e+00
4.212050635810490348e+04 4.326746925995484716e+00 2.080083394000222352e+00
4.218784529712665972e+04 5.545034204324392313e+00 2.354789630587919902e+00
4.225518423614841595e+04 6.620200102984918011e+00 2.572974951876702221e+00
4.232252317517016490e+04 7.768107090220024880e+00 2.787132413470882142e+00
4.238986211419191386e+04 8.915309870796020775e+00 2.985851615669476100e+00
4.245720105321366282e+04 9.221540748590106418e+00 3.036698988801838084e+00
4.252453999223541177e+04 8.593426943479064661e+00 2.931454748666447507e+00
4.259187893125716801e+04 6.760072857032689342e+00 2.600014010930073560e+00
4.265921787027890969e+04 4.587812288229790703e+00 2.141917899507306267e+00
4.272655680930066592e+04 3.063862534504896651e+00 1.750389252282159358e+00
4.279389574832242215e+04 2.109362397970827363e+00 1.452364416381380252e+00
4.286123468734416383e+04 1.450370315944916166e+00 1.204313213389654802e+00
4.292857362636592006e+04 8.196800177866743198e-01 9.053618159535304910e-01
4.299591256538766902e+04 5.925847886919980434e-01 7.697952901206904786e-01
4.306325150440941798e+04 3.867038012449008910e-01 6.218551288241506159e-01
4.313059044343116693e+04 2.215508562121794034e-01 4.706918909564720699e-01
4.319792938245291589e+04 1.826908505549594275e-01 4.274235025767294527e-01
4.326526832147466484e+04 1.302185825154541510e-01 3.608581196473957253e-01
4.333260726049641380e+04 1.457694063101638571e-01 3.817975986175972114e-01
4.339994619951817003e+04 1.768714524591471215e-01 4.205608784220747354e-01
4.346728513853992627e+04 2.429675394349565809e-01 4.929173758703953023e-01
4.353462407756167522e+04 3.693413543800357357e-01 6.077346085093687789e-01
4.360196301658342418e+04 6.726687890634188705e-01 8.201638793944896477e-01
4.366930195560517313e+04 1.038319271370220731e+00 1.018979524509801227e+00
4.373664089462692209e+04 1.454679913462546770e+00 1.206101120745083577e+00
4.380397983364867105e+04 1.906226925721594467e+00 1.380661770935081245e+00
4.387131877267042000e+04 2.968831832651929847e+00 1.723029840905818455e+00
4.393865771169217624e+04 3.411046377955697650e+00 1.846901832246559350e+00
4.400599665071392519e+04 4.487704120609304681e+00 2.118420194533960910e+00
4.407333558973567415e+04 5.350259490271858098e+00 2.313062794277720879e+00
4.414067452875743038e+04 6.189133178315657347e+00 2.487796852300375505e+00
4.420801346777917934e+04 7.673483916675142957e+00 2.770105398116675222e+00
4.427535240680092829e+04 9.981575704002969118e+00 3.159363180136618876e+00
4.434269134582267725e+04 1.097625771103479408e+01 3.313043572160618844e+00
4.441003028484442621e+04 1.028112658324260309e+01 3.206419589392910829e+00
4.447736922386617516e+04 7.815112483009261091e+00 2.795552267980203620e+00
4.454470816288792412e+04 5.190058098938938436e+00 2.278169901245062690e+00
4.461204710190967307e+04 3.559799261335725440e+00 1.886743030021768908e+00
4.467938604093142931e+04 2.342973915822652575e+00 1.530677600222415391e+00
4.474672497995317826e+04 1.513688696344601237e+00 1.230320566496635237e+00
4.481406391897493450e+04 1.007151934366043999e+00 1.003569596174597178e+00
4.488140285799668345e+04 5.829524574233750922e-01 7.635132332994465365e-01
4.494874179701842513e+04 4.317062241786557841e-01 6.570435481599798955e-01
4.501608073604018136e+04 2.828260527679083425e-01 5.318139268277094489e-01
4.508341967506193032e+04 1.574813315863320129e-01 3.968391759722469936e-01
4.515075861408367928e+04 1.207603194410015457e-01 3.475058552614639917e-01
4.521809755310542823e+04 9.564916246391798327e-02 3.092719878422842128e-01
4.528543649212718447e+04 5.917844155988802313e-02 2.432661948563507592e-01
4.535277543114893342e+04 3.619204459725629264e-02 1.902420684214096158e-01
4.542011437017068238e+04 2.470763994074047856e-02 1.571866404652140781e-01
4.548745330919243133e+04 4.550954225547102633e-02 2.133296562962379850e-01
4.555479224821418757e+04 3.216050703701547192e-02 1.793335078478516531e-01
4.562213118723593652e+04 3.208399779400959023e-02 1.791200653026052969e-01
4.568947012625768548e+04 3.765494756221809264e-02 1.940488277785209770e-01
4.575680906527943444e+04 1.878174147006898484e-02 1.370464938262521970e-01
4.582414800430118339e+04 2.810386817891966441e-02 1.676420835557696776e-01
4.589148694332293962e+04 2.616630267834785598e-02 1.617600156971674419e-01
4.595882588234468858e+04 3.356061567465683237e-02 1.831955667440040292e-01
4.602616482136643754e+04 2.789975130242141124e-02 1.670321864265130463e-01
4.609350376038818649e+04 1.484439707865988292e-02 1.218375848359605496e-01
4.616084269940994272e+04 4.257747326023318679e-02 2.063430959839296086e-01
4.622818163843169168e+04 2.031622748788778493e-02 1.425350044300970342e-01
4.629552057745344064e+04 1.842768095583290078e-02 1.357485946735099702e-01
4.636285951647518959e+04 2.022586341504357954e-02 1.422176621065174840e-01
4.643019845549693855e+04 2.752168391751923585e-02 1.658966061060901664e-01
4.649753739451868751e+04 1.647861221632194312e-02 1.283690469557281777e-01
4.656487633354043646e+04 1.096352628199044957e-02 1.047068588106359471e-01
4.663221527256218542e+04 1.641298870301060100e-02 1.281131870769383341e-01
4.669955421158393438e+04 2.366236888908967648e-02 1.538257744628307722e-01
4.676689315060569788e+04 1.998472857512575279e-02 1.413673532861309257e-01
4.683423208962744684e+04 2.538880417465698078e-02 1.593386462056740893e-01
4.690157102864919580e+04 1.991273620582274806e-02 1.411124948607413165e-01
4.696890996767094475e+04 1.987766366370745386e-02 1.409881685238426330e-01
4.703624890669269371e+04 2.164691605164112756e-02 1.471289096392722207e-01
4.710358784571444266e+04 1.800773282180494900e-02 1.341928940808899406e-01
4.717092678473619162e+04 1.258346177766707895e-02 1.121760303169401646e-01
4.723826572375794058e+04 1.256138618880472610e-02 1.120775900383512297e-01
4.730560466277969681e+04 2.149557850393092953e-02 1.466137050344575588e-01
4.737294360180144577e+04 2.860899936747150762e-02 1.691419503478409914e-01
4.744028254082319472e+04 7.139058932831406079e-03 8.449295197134140678e-02
4.750762147984495095e+04 1.781392407895389732e-02 1.334688131323340243e-01
4.757496041886669991e+04 4.089250050808377474e-02 2.022189420110880043e-01
4.764229935788844887e+04 2.129258742372591717e-02 1.459197979155875680e-01
4.770963829691019782e+04 2.124870177785099720e-02 1.457693444378858338e-01
4.777697723593194678e+04 2.473736181397886633e-02 1.572811553046926936e-01
4.784431617495370301e+04 1.586759816946319360e-02 1.259666549903711297e-01
4.791165511397545197e+04 2.110867195395946944e-02 1.452882374934718057e-01
4.797899405299720092e+04 1.403933965331298495e-02 1.184877194198326461e-01
4.804633299201895716e+04 1.400519323272025538e-02 1.183435390408798527e-01
4.811367193104070611e+04 8.731234805530318707e-03 9.344107665010244201e-02
4.818101087006245507e+04 1.393368544063964924e-02 1.180410328684040611e-01
4.824834980908420403e+04 1.737042393026783441e-02 1.317969040997087893e-01
4.831568874810595298e+04 1.039346785521009370e-02 1.019483587666328989e-01
4.838302768712770194e+04 2.072779962785452693e-02 1.439715236699762313e-01
4.845036662614945089e+04 1.205590499107129024e-02 1.097993852035214768e-01
4.851770556517120713e+04 2.747389951188273019e-02 1.657525249034919879e-01
4.858504450419294881e+04 1.198304072615863358e-02 1.094670759916361036e-01
4.865238344321470504e+04 1.194564887749167102e-02 1.092961521623321830e-01
4.871972238223646127e+04 1.530992661245833900e-02 1.237332882148467761e-01
4.878706132125820295e+04 1.186936595336775778e-02 1.089466197427334526e-01
4.885440026027995918e+04 1.014058836694990522e-02 1.007004884146542045e-01
4.892173919930170814e+04 1.684536897867503977e-02 1.297897106040191428e-01
4.898907813832345710e+04 8.394778048409866703e-03 9.162302138878561375e-02
4.905641707734520605e+04 1.171354759774067243e-02 1.082291439388701482e-01
4.912375601636695501e+04 2.334886193495666271e-02 1.528033439914083247e-01
4.919109495538870397e+04 1.329757572030089430e-02 1.153151148822256222e-01
4.925843389441046020e+04 2.153631682947327805e-02 1.467525700949502132e-01
4.932577283343220915e+04 1.981334412418054094e-02 1.407598810889684471e-01
4.939311177245395811e+04 1.974743675860423167e-02 1.405255733260114825e-01
4.946045071147571434e+04 1.640168088379002215e-02 1.280690473291264120e-01
4.952778965049746330e+04 1.144334985631850592e-02 1.069735942011789398e-01
4.959512858951921226e+04 1.140589881983875530e-02 1.067984027026563504e-01
4.966246752854096121e+04 6.496486342097851883e-03 8.060078375610160717e-02
4.972980646756271017e+04 1.133225599053098824e-02 1.064530694274758299e-01
4.979714540658446640e+04 1.129611803298813909e-02 1.062831973220044746e-01
4.986448434560621536e+04 1.286912957613394436e-02 1.134421860514594621e-01
4.993182328462795704e+04 1.924351155963732046e-02 1.387209845684398146e-01
4.999916222364970599e+04 2.398034453261661120e-02 1.548558831062501473e-01
5.006650116267146950e+04 1.115685167376768809e-02 1.056259990426963447e-01
5.013384010169321846e+04 1.906878543724202860e-02 1.380897731088078506e-01
5.020117904071496741e+04 1.425942793138811580e-02 1.194128465927687122e-01
5.026851797973671637e+04 1.737761288660029380e-02 1.318241741358552599e-01
5.033585691875846533e+04 1.575269924374896047e-02 1.255097575639000373e-01
5.040319585778022156e+04 1.413758416401831100e-02 1.189015734295316706e-01
5.047053479680196324e+04 1.723150121779144089e-02 1.312688128147407318e-01
5.053787373582371220e+04 1.249793811577098838e-02 1.117941774681087269e-01
5.060521267484546843e+04 2.025482768912393108e-02 1.423194564672164986e-01
5.067255161386721738e+04 1.087777858676716551e-02 1.042965895260586501e-01
5.073989055288897362e+04 1.239962698967809161e-02 1.113536123782165044e-01
5.080722949191072257e+04 1.546020121967065647e-02 1.243390574987226493e-01
5.087456843093247153e+04 6.168685410438488025e-03 7.854097917926977646e-02
5.094190736995422048e+04 1.846091570524444753e-02 1.358709523969139077e-01
5.100924630897596944e+04 1.688210643528298763e-02 1.299311603707247187e-01
5.107658524799771840e+04 1.071811909477560221e-02 1.035283492323508525e-01
5.114392418701946735e+04 2.138753596614516306e-02 1.462447809877164828e-01
5.121126312604122359e+04 1.524304111179319160e-02 1.234627114224906008e-01
5.127860206506297982e+04 1.521032700119157033e-02 1.233301544683682444e-01
5.134594100408472877e+04 1.973224787690896001e-02 1.404715198070732030e-01
5.141327994310647773e+04 1.514805825916967080e-02 1.230774482152180160e-01
5.148061888212822669e+04 1.814217402693871911e-02 1.346928878112675920e-01
5.154795782114997564e+04 7.544962718658621004e-03 8.686174485156639147e-02
5.161529676017172460e+04 0.000000000000000000e+00 0.000000000000000000e+00
5.168263569919347356e+04 1.202845025921402480e-02 1.096742916968877629e-01
5.174997463821522251e+04 6.003817500722205720e-03 7.748430486700003117e-02
5.181731357723697874e+04 1.048889901508720350e-02 1.024153260751885924e-01
5.188465251625872770e+04 5.983668375599859521e-03 7.735417490736914981e-02
5.195199145528047666e+04 2.240177431777945483e-02 1.496722229332465570e-01
5.201933039430222561e+04 7.454969689200978931e-03 8.634216634530882117e-02
5.208666933332398185e+04 1.637378478382806035e-02 1.279600905901057128e-01
5.215400827234573080e+04 1.040219589078644410e-02 1.019911559439662663e-01
5.222134721136747976e+04 1.928525876394637448e-02 1.388713748903868672e-01
5.228868615038922871e+04 8.885202463349508098e-03 9.426135190707540801e-02
5.235602508941097767e+04 7.390825870272771554e-03 8.596991258732773755e-02
5.242336402843272663e+04 7.376815904559279151e-03 8.588839214095976560e-02
5.249070296745448286e+04 1.030710527486839410e-02 1.015239147928624491e-01
5.255804190647623182e+04 1.469398368414923800e-03 3.833273233693267057e-02
5.262538084549798805e+04 1.172976728027712995e-02 1.083040501563867219e-01
5.269271978451973700e+04 2.340651885046542841e-02 1.529918914533232033e-01
5.276005872354147868e+04 1.021619896013507139e-02 1.010752143709577888e-01
5.282739766256323492e+04 8.735266012346743630e-03 9.346264501043581585e-02
5.289473660158498387e+04 2.904354426545910188e-03 5.389206274161260912e-02
5.296207554060673283e+04 2.462229008765030869e-02 1.569149135284798602e-01
5.302941447962848179e+04 1.877816744871827967e-02 1.370334537575342571e-01
5.309675341865023802e+04 2.016712759748318096e-02 1.420110122401892494e-01
5.316409235767198697e+04 2.585700339509352033e-02 1.608011299558977647e-01
5.323143129669373593e+04 1.575720944179678784e-02 1.255277237975611082e-01
5.329877023571548489e+04 1.285608887831461711e-02 1.133846941977382505e-01
5.336610917473724112e+04 8.546806860567638525e-03 9.244894191156348418e-02
5.343344811375899008e+04 2.272869646485824180e-02 1.507603942183033674e-01
5.350078705278073903e+04 1.700041995896493796e-02 1.303856585632213461e-01
5.356812599180248799e+04 1.271668734910197211e-02 1.127682905301927996e-01
5.363546493082423694e+04 8.456100191998671550e-03 9.195705623821737174e-02
5.370280386984598590e+04 1.405866695115277031e-02 1.185692496018793674e-01
5.377014280886774213e+04 9.817669925223343474e-03 9.908415577287492393e-02
5.383748174788949109e+04 9.795260491839728745e-03 9.897100834001706926e-02
5.390482068691124005e+04 1.396257003821433154e-02 1.181633193432476830e-01
5.397215962593298900e+04 1.671980704859950262e-02 1.293050928950577050e-01
5.403949856495473796e+04 2.502887381365236433e-02 1.582051636756915958e-01
5.410683750397649419e+04 9.714342297193593462e-03 9.856136310539538592e-02
5.417417644299824315e+04 1.523618110183062521e-02 1.234349265881850150e-01
5.424151538201999210e+04 6.912499522145308661e-03 8.314144286783402282e-02
5.430885432104174106e+04 9.659412770730990347e-03 9.828231158622079133e-02
5.437619326006349002e+04 9.641295467845060682e-03 9.819009862427606483e-02
5.444353219908523897e+04 2.062061756182878222e-02 1.435988076615846432e-01
5.451087113810698793e+04 1.509238569876118416e-02 1.228510712153589035e-01
5.457821007712874416e+04 1.916996023728538556e-02 1.384556255169337169e-01
5.464554901615050039e+04 1.913005663544325302e-02 1.383114479551250109e-01
5.471288795517224935e+04 1.227120681791330804e-02 1.107754793170099838e-01
5.478022689419399831e+04 5.441483491346897627e-03 7.376641167460226689e-02
5.484756583321574726e+04 9.499950571130689678e-03 9.746768988301041103e-02
5.491490477223749622e+04 1.353757338847195839e-02 1.163510781577547643e-01
5.498224371125924517e+04 8.101403630669381378e-03 9.000779761037029647e-02
5.504958265028099413e+04 4.039698738110184505e-03 6.355862441958749776e-02
5.511692158930274309e+04 1.477034865914939044e-02 1.215333232457229823e-01
5.518426052832449204e+04 1.874351462483871480e-02 1.369069560863826751e-01
5.525159946734625555e+04 1.601724802972721157e-02 1.265592668662678943e-01
5.531893840636800451e+04 2.128981971486330199e-02 1.459103139427206652e-01
5.538627734538975346e+04 1.989559043040790495e-02 1.410517296257224329e-01
5.545361628441150242e+04 9.254409167434085592e-03 9.619983974744493460e-02
5.552095522343325138e+04 1.185924039140608642e-02 1.089001395380469056e-01
5.558829416245500033e+04 1.050638491308660341e-02 1.025006581105048498e-01
5.565563310147674929e+04 9.162253897764408364e-03 9.571966306754536857e-02
5.572297204049849825e+04 7.826995022702079585e-03 8.847030588113775906e-02
5.579031097952024720e+04 7.800818568386686837e-03 8.832224277262600010e-02
5.585764991854201071e+04 0.000000000000000000e+00 0.000000000000000000e+00
5.592498885756375967e+04 1.033268237974051956e-02 1.016498026547052319e-01
5.599232779658550135e+04 1.158692936822995796e-02 1.076426001554679907e-01
5.605966673560725758e+04 8.983776482725613563e-03 9.478278579323153041e-02
5.612700567462900653e+04 1.279480557178817000e-02 1.131141263140381104e-01
5.619434461365075549e+04 1.785984411571316793e-02 1.336407277580946296e-01
5.626168355267250445e+04 1.144866385594211881e-02 1.069984292218447430e-01
5.632902249169426068e+04 8.880221933296881393e-03 9.423492947573569589e-02
5.639636143071601691e+04 1.518356059481631472e-02 1.232215914311137056e-01
5.646370036973776587e+04 1.135943931156140410e-02 1.065806704405700550e-01
5.653103930875951482e+04 8.814339801897086088e-03 9.388471548605281658e-02
5.659837824778126378e+04 1.256392243549886434e-02 1.120889041587028179e-01
5.666571718680301274e+04 1.379133050744944279e-02 1.174364956367884988e-01
5.673305612582476169e+04 1.001023898150976352e-02 1.000511818096606192e-01
5.680039506484651065e+04 1.124056637175359884e-02 1.060215373014068291e-01
5.686773400386825961e+04 1.371437702092411989e-02 1.171083985926035936e-01
5.693507294289001584e+04 1.991519950651966797e-02 1.411212227360564841e-01
5.700241188191177207e+04 1.242750744102857213e-02 1.114787308908231633e-01
5.706975082093351375e+04 6.204513798017666747e-03 7.876873617126065041e-02
5.713708975995526998e+04 9.913133157588280286e-03 9.956471843774922226e-02
5.720442869897701894e+04 2.598655119469293895e-02 1.612034465968173458e-01
5.727176763799876062e+04 1.730160171650826223e-02 1.315355530512882232e-01
5.733910657702051685e+04 8.639768399770280174e-03 9.295035448975048908e-02
5.740644551604226581e+04 1.232714211553046987e-02 1.110276637398557031e-01
5.747378445506401476e+04 1.231203569091343653e-02 1.109596128819555494e-01
5.754112339408577100e+04 9.837706582773568867e-03 9.918521352890040388e-02
5.760846233310751268e+04 1.105412105092428050e-02 1.051385802211741854e-01
5.767580127212926163e+04 6.133819468012974285e-03 7.831870445821338678e-02
5.774314021115101787e+04 1.715413789601507449e-02 1.309738061446450996e-01
5.781047915017275955e+04 1.468592385508877066e-02 1.211854935835505465e-01
5.787781808919450850e+04 7.334150144473268636e-03 8.563965287454911035e-02
5.794515702821626473e+04 1.587157471318220020e-02 1.259824381141363692e-01
5.801249596723802097e+04 1.585249908225274881e-02 1.259067078524919170e-01
5.807983490625976992e+04 7.307747987251971000e-03 8.548536709432773273e-02
5.814717384528151888e+04 8.515510319383804566e-03 9.227952275225421996e-02
5.821451278430326784e+04 1.701083720560649798e-02 1.304256002692971983e-01
5.828185172332501679e+04 1.456365260792708526e-02 1.206799594295883266e-01
5.834919066234676575e+04 1.939589941584693444e-02 1.392691617546646110e-01
5.841652960136852198e+04 1.089797906412820830e-02 1.043933861129535817e-01
5.848386854039026366e+04 1.330532751703772561e-02 1.153487213498169822e-01
5.855120747941202717e+04 1.329154354772396282e-02 1.152889567466197640e-01
5.861854641843378340e+04 1.086421595578210796e-02 1.042315497140002545e-01
5.868588535745552508e+04 1.326630240044426694e-02 1.151794356664603003e-01
5.875322429647727404e+04 1.687009523475723957e-02 1.298849307454765512e-01
5.882056323549902299e+04 1.204082744348378836e-02 1.097307041966093799e-01
5.888790217452077195e+04 9.626096487065206528e-03 9.811267240813087431e-02
5.895524111354252091e+04 1.322806311735315841e-02 1.150133171304660584e-01
5.902258005256426986e+04 7.211723774979387699e-03 8.492186864983240768e-02
5.908991899158601882e+04 1.441765425106160403e-02 1.200735368474736137e-01
5.915725793060777505e+04 1.681540200647254832e-02 1.296742148866633637e-01
5.922459686962953128e+04 1.200835089014647659e-02 1.095826212962004165e-01
5.929193580865128024e+04 1.440799662910375797e-02 1.200333146634873088e-01
5.935927474767302920e+04 1.200582596799554085e-02 1.095711000583435846e-01
5.942661368669477815e+04 9.604547729362689773e-03 9.800279449772179852e-02
5.949395262571652711e+04 1.080542197009303797e-02 1.039491316466522319e-01
5.956129156473827607e+04 1.680930354651180916e-02 1.296506982106606642e-01
5.962863050376002502e+04 7.204387352236690800e-03 8.487866252620084040e-02
5.969596944278178125e+04 9.606232265930382888e-03 9.801138845017134948e-02
5.976330838180353749e+04 1.921249863322813459e-02 1.386091578259825430e-01
5.983064732082528644e+04 1.560929987143718986e-02 1.249371837021996806e-01
5.989798625984703540e+04 8.403901064550382480e-03 9.167279348067441935e-02
5.996532519886878435e+04 1.680398355476600547e-02 1.296301799534583798e-01
6.003266413789053331e+04 8.399175388704232040e-03 9.164701516527547220e-02
6.010000307691228227e+04 1.319269605464836251e-02 1.148594621903148288e-01
6.016734201593403122e+04 8.390443716063565247e-03 9.159936526015649561e-02
6.023468095495578746e+04 1.317553579210348561e-02 1.147847367558225695e-01
6.030201989397754369e+04 9.574064083944467882e-03 9.784714652939281720e-02
6.036935883299928537e+04 1.195586535932243073e-02 1.093428797833788102e-01
6.043669777202104160e+04 9.554164466671191680e-03 9.774540637120085473e-02
6.050403671104279056e+04 7.156953999488097941e-03 8.459878249412397522e-02
6.057137565006453951e+04 1.191270567881509528e-02 1.091453419932114921e-01
6.063871458908628847e+04 1.784437856674292444e-02 1.335828528170547869e-01
6.070605352810803743e+04 7.127475082101759722e-03 8.442437492870029370e-02
6.077339246712978638e+04 1.186159187224556343e-02 1.089109355034909438e-01
6.084073140615153534e+04 1.065950913580991470e-02 1.032448988367459936e-01
6.090807034517329885e+04 8.278442686535757503e-03 9.098594774214179004e-02
6.097540928419504780e+04 1.180914236048867701e-02 1.086698778893612077e-01
6.104274822321678948e+04 2.594365267543446985e-02 1.610703345605095371e-01
6.111008716223854572e+04 1.530988929947688960e-02 1.237331374348718677e-01
6.117742610126029467e+04 1.058594569569274411e-02 1.028880250354371612e-01
6.124476504028203635e+04 1.879798860108436789e-02 1.371057569946804444e-01
6.131210397930379258e+04 1.056306084166564602e-02 1.027767524378234432e-01
6.137944291832554154e+04 1.524415806023913730e-02 1.234672347638803153e-01
6.144678185734729050e+04 1.523273333090659556e-02 1.234209598524764195e-01
6.151412079636904673e+04 1.756571220175036016e-02 1.325357016118689502e-01
6.158145973539078841e+04 1.404636258895858129e-02 1.185173514256818855e-01
6.164879867441253737e+04 8.191424808947017980e-03 9.050649042442766856e-02
6.171613761343429360e+04 7.020432696391387326e-03 8.378802239217361669e-02
6.178347655245603528e+04 8.190951716792122320e-03 9.050387680531769841e-02
6.185081549147778424e+04 1.053357500742291807e-02 1.026332061636141130e-01
6.191815443049954774e+04 1.053767455340756318e-02 1.026531760512433555e-01
6.198549336952129670e+04 1.522950414374361905e-02 1.234078771543519332e-01
6.205283230854304566e+04 3.517000877644768219e-03 5.930430741223412933e-02
6.212017124756480189e+04 5.866724899261329708e-03 7.659454875682296382e-02
6.218751018658654357e+04 1.644334089528706744e-02 1.282315908631218304e-01
6.225484912560829252e+04 1.763789573144538061e-02 1.328077397271912874e-01
6.232218806463004148e+04 1.059602139007080959e-02 1.029369777585820156e-01
6.238952700365179044e+04 7.073601492583211740e-03 8.410470553175494746e-02
6.245686594267353939e+04 9.445065173001891343e-03 9.718572515036295878e-02
6.252420488169530290e+04 1.300653076501363629e-02 1.140461782130976764e-01
6.259154382071705186e+04 1.302669543147195845e-02 1.141345496835728529e-01
6.265888275973880081e+04 1.541937288570961219e-02 1.241747675081762009e-01
6.272622169876054977e+04 5.939835221378663745e-03 7.707032646472093684e-02
6.279356063778230600e+04 1.903685325595696337e-02 1.379741035700430274e-01
6.286089957680404768e+04 8.341124199632048847e-03 9.132975528069725568e-02
6.292823851582579664e+04 9.546408713566397961e-03 9.770572508080781204e-02
6.299557745484755287e+04 1.433902211942558041e-02 1.197456559522122321e-01
6.306291639386930910e+04 1.196424837094486361e-02 1.093812066625015067e-01
6.313025533289105806e+04 8.384656943513302957e-03 9.156777240663498130e-02
6.319759427191280702e+04 2.278213826590694963e-02 1.509375310050715957e-01
6.326493321093455597e+04 1.920288683531357760e-02 1.385744811836348844e-01
6.333227214995630493e+04 1.201172254462136088e-02 1.095980042912340635e-01
6.339961108897805389e+04 1.322252199151041120e-02 1.149892255453110329e-01
6.346695002799980284e+04 3.608465565341442000e-03 6.007050495327504597e-02
6.353428896702155180e+04 1.444218063556142358e-02 1.201756241321900731e-01
6.360162790604330803e+04 9.633201855717952317e-03 9.814887597786310647e-02
6.366896684506506426e+04 1.325230560965299197e-02 1.151186588249402398e-01
6.373630578408681322e+04 1.325895478433231599e-02 1.151475348599887150e-01
6.380364472310856218e+04 1.326593185559008653e-02 1.151778271004887805e-01
6.387098366213031113e+04 1.327354543586281577e-02 1.152108737744090561e-01
6.393832260115206009e+04 1.086719475779032371e-02 1.042458380837830989e-01
6.400566154017380904e+04 1.691701972011819266e-02 1.300654439892402481e-01
6.407300047919555800e+04 4.837555789567951278e-03 6.955253977798331322e-02
6.414033941821730696e+04 9.684583168824579397e-03 9.841027979243113788e-02
6.420767835723906319e+04 4.847710405945292005e-03 6.962550111809100162e-02
6.427501729626081942e+04 6.067298567174829287e-03 7.789286595815324288e-02
6.434235623528256110e+04 9.721396564595960466e-03 9.859714278109665830e-02
6.440969517430431733e+04 9.736577905872963179e-03 9.867409946826453948e-02
6.447703411332606629e+04 1.341057784016345435e-02 1.158040493254163111e-01
6.454437305234780797e+04 1.221379650672924609e-02 1.105160463766653445e-01
6.461171199136956420e+04 1.468518612177860741e-02 1.211824497267595530e-01
6.467905093039131316e+04 1.348910033339279120e-02 1.161425862179450152e-01
6.474638986941306212e+04 9.831267609811795982e-03 9.915274887672956283e-02
6.481372880843482562e+04 1.847429365281305289e-02 1.359201738257167225e-01
6.488106774745657458e+04 3.703183480316149349e-03 6.085378772365898636e-02
6.494840668647832354e+04 1.360929844805554463e-02 1.166588978520521763e-01
6.501574562550006522e+04 1.364045086326065581e-02 1.167923407731031593e-01
6.508308456452182145e+04 1.740022356177760993e-02 1.319099069887383902e-01
6.515042350354357040e+04 9.965501444247066090e-03 9.982735819527163712e-02
6.521776244256531209e+04 1.872712478694253668e-02 1.368470854163234829e-01
6.528510138158706832e+04 1.251225268062871113e-02 1.118581811072784787e-01
6.535244032060883183e+04 5.015750482571863789e-03 7.082196327815167003e-02
6.541977925963057351e+04 1.005290211605376800e-02 1.002641616733205843e-01
6.548711819865232974e+04 1.762960273685549445e-02 1.327765142517888797e-01
6.555445713767406414e+04 1.261880324764162904e-02 1.123334467006226467e-01
6.562179607669581310e+04 7.586970769122200128e-03 8.710321905143460219e-02
6.568913501571757661e+04 1.013692512936373129e-02 1.006822979940552032e-01
6.575647395473931101e+04 7.618531180309607090e-03 8.728419776975444855e-02
6.582381289376105997e+04 1.908641649700854037e-02 1.381535974812402034e-01
6.589115183278283803e+04 2.040231183734884240e-02 1.428366613910757865e-01
6.595849077180458698e+04 1.405704912439570929e-02 1.185624271192004114e-01
6.602582971082632139e+04 1.024591596353223097e-02 1.012221120286087989e-01
6.609316864984808490e+04 1.668706843432449585e-02 1.291784364138399699e-01
6.616050758886983385e+04 1.029242911086786748e-02 1.014516097007231721e-01
6.622784652789156826e+04 1.805337845975811539e-02 1.343628611624436697e-01
6.629518546691333177e+04 6.462626586881547661e-03 8.039046328316280798e-02
6.636252440593508072e+04 1.425080248207693211e-02 1.193767250433556276e-01
6.642986334495682968e+04 6.492554403647759521e-03 8.057638862376347022e-02
6.649720228397857863e+04 1.171301440448052796e-02 1.082266806498311112e-01
6.656454122300032759e+04 1.434735148740363779e-02 1.197804303189950875e-01
6.663188016202207655e+04 1.307056600264165994e-02 1.143265760995301611e-01
6.669921910104382550e+04 2.488374881558395868e-02 1.577458361275629883e-01
6.676655804006557446e+04 9.184826328050458427e-03 9.583749959202013391e-02
6.683389697908732342e+04 6.571845292616735300e-03 8.106691860812730022e-02
6.690123591810907237e+04 1.053118425826916373e-02 1.026215584478678833e-01
6.696857485713082133e+04 5.272720795258492577e-03 7.261350284388222442e-02
6.703591379615258484e+04 1.055756784287979581e-02 1.027500259994117704e-01
6.710325273517433379e+04 5.283715062001420951e-03 7.268916743230328936e-02
6.717059167419608275e+04 2.643729618535020122e-03 5.141721130647810417e-02
6.723793061321783171e+04 5.289978723777517822e-03 7.273223991997990190e-02
6.730526955223958066e+04 1.322811029626045840e-02 1.150135222322160589e-01
