*
* Conditionele overschrijdingskansen potentiele windsnelheid Schiphol met 12 windrichtingssectoren. Met statistische onzekerheid.
* WTI2017: 12-uursmaxima, gegeven windrichting
*
* Door: K.A. Wojciechowska van HKV lijn in water
* Project: PR3391.10
*
* u (m/s)   30              60              90              120             150             180             210             240             270             300             330             360
  0.00      1.000e+000      1.000e+000      1.000e+000      1.000e+000      1.000e+000      1.000e+000      1.000e+000      1.000e+000      1.000e+000      1.000e+000      1.000e+000      1.000e+000 
  2.00      9.828e-001      9.936e-001      9.929e-001      9.894e-001      9.959e-001      9.955e-001      9.966e-001      9.968e-001      9.979e-001      9.952e-001      9.902e-001      9.834e-001 
  2.50      9.655e-001      9.695e-001      9.668e-001      9.600e-001      9.764e-001      9.834e-001      9.877e-001      9.884e-001      9.898e-001      9.808e-001      9.572e-001      9.353e-001 
  3.00      9.383e-001      9.490e-001      9.328e-001      9.152e-001      9.408e-001      9.637e-001      9.737e-001      9.798e-001      9.785e-001      9.606e-001      9.314e-001      8.868e-001 
  3.50      8.842e-001      9.016e-001      8.605e-001      8.317e-001      8.764e-001      9.176e-001      9.521e-001      9.574e-001      9.617e-001      9.195e-001      8.801e-001      7.858e-001 
  4.00      8.303e-001      8.538e-001      7.934e-001      7.528e-001      8.009e-001      8.708e-001      9.286e-001      9.375e-001      9.407e-001      8.848e-001      8.385e-001      7.043e-001 
  4.50      7.473e-001      7.837e-001      6.922e-001      6.441e-001      6.972e-001      8.055e-001      8.929e-001      9.103e-001      9.032e-001      8.314e-001      7.789e-001      6.160e-001 
  5.00      6.700e-001      7.220e-001      6.183e-001      5.512e-001      6.232e-001      7.417e-001      8.522e-001      8.817e-001      8.705e-001      7.876e-001      7.353e-001      5.549e-001 
  5.50      5.716e-001      6.409e-001      5.312e-001      4.558e-001      5.386e-001      6.681e-001      7.972e-001      8.458e-001      8.285e-001      7.378e-001      6.849e-001      4.848e-001 
  6.00      4.993e-001      5.714e-001      4.533e-001      3.746e-001      4.500e-001      5.896e-001      7.396e-001      8.096e-001      7.922e-001      6.947e-001      6.260e-001      4.167e-001 
  6.50      4.186e-001      5.006e-001      3.689e-001      2.820e-001      3.597e-001      5.078e-001      6.798e-001      7.624e-001      7.515e-001      6.398e-001      5.625e-001      3.530e-001 
  7.00      3.491e-001      4.317e-001      3.038e-001      2.007e-001      2.835e-001      4.337e-001      6.128e-001      7.141e-001      7.106e-001      5.808e-001      4.935e-001      2.960e-001 
  7.50      2.904e-001      3.593e-001      2.355e-001      1.324e-001      2.177e-001      3.643e-001      5.489e-001      6.662e-001      6.580e-001      5.270e-001      4.257e-001      2.425e-001 
  8.00      2.379e-001      3.017e-001      1.723e-001      8.830e-002      1.642e-001      3.028e-001      4.895e-001      6.185e-001      5.984e-001      4.734e-001      3.587e-001      1.953e-001 
  8.50      1.895e-001      2.511e-001      1.215e-001      5.941e-002      1.213e-001      2.481e-001      4.357e-001      5.686e-001      5.370e-001      4.163e-001      2.996e-001      1.572e-001 
  9.00      1.488e-001      2.020e-001      8.531e-002      3.913e-002      9.005e-002      2.003e-001      3.831e-001      5.203e-001      4.811e-001      3.616e-001      2.490e-001      1.289e-001 
  9.50      1.129e-001      1.517e-001      5.837e-002      2.567e-002      6.609e-002      1.590e-001      3.320e-001      4.715e-001      4.318e-001      3.117e-001      2.050e-001      1.064e-001 
 10.00      8.247e-002      1.116e-001      3.891e-002      1.683e-002      4.618e-002      1.249e-001      2.835e-001      4.231e-001      3.887e-001      2.688e-001      1.650e-001      8.625e-002 
 10.50      5.942e-002      8.330e-002      2.602e-002      1.105e-002      3.112e-002      9.693e-002      2.397e-001      3.770e-001      3.477e-001      2.315e-001      1.310e-001      6.878e-002 
 11.00      4.272e-002      6.170e-002      1.746e-002      7.241e-003      2.077e-002      7.340e-002      2.013e-001      3.351e-001      3.063e-001      1.981e-001      1.029e-001      5.462e-002 
 11.50      3.071e-002      4.429e-002      1.173e-002      4.724e-003      1.385e-002      5.504e-002      1.678e-001      2.959e-001      2.656e-001      1.665e-001      8.030e-002      4.337e-002 
 12.00      2.209e-002      3.067e-002      7.883e-003      3.051e-003      9.244e-003      4.119e-002      1.381e-001      2.573e-001      2.268e-001      1.372e-001      6.330e-002      3.443e-002 
 12.50      1.589e-002      2.091e-002      5.304e-003      1.951e-003      6.168e-003      3.016e-002      1.117e-001      2.195e-001      1.906e-001      1.115e-001      5.047e-002      2.734e-002 
 13.00      1.142e-002      1.421e-002      3.580e-003      1.242e-003      4.108e-003      2.148e-002      8.889e-002      1.838e-001      1.575e-001      8.957e-002      4.042e-002      2.172e-002 
 13.50      8.181e-003      9.662e-003      2.431e-003      7.904e-004      2.720e-003      1.509e-002      7.009e-002      1.514e-001      1.283e-001      7.113e-002      3.240e-002      1.725e-002 
 14.00      5.800e-003      6.582e-003      1.661e-003      5.031e-004      1.781e-003      1.056e-002      5.548e-002      1.234e-001      1.029e-001      5.636e-002      2.598e-002      1.370e-002 
 14.50      4.040e-003      4.505e-003      1.138e-003      3.203e-004      1.151e-003      7.395e-003      4.414e-002      9.950e-002      8.138e-002      4.500e-002      2.083e-002      1.087e-002 
 15.00      2.763e-003      3.108e-003      7.811e-004      2.041e-004      7.390e-004      5.178e-003      3.475e-002      7.907e-002      6.404e-002      3.620e-002      1.670e-002      8.586e-003 
 15.50      1.868e-003      2.162e-003      5.363e-004      1.300e-004      4.731e-004      3.626e-003      2.675e-002      6.210e-002      5.053e-002      2.920e-002      1.340e-002      6.720e-003 
 16.00      1.258e-003      1.513e-003      3.683e-004      8.290e-005      3.029e-004      2.541e-003      2.017e-002      4.854e-002      3.977e-002      2.356e-002      1.074e-002      5.183e-003 
 16.50      8.463e-004      1.061e-003      2.530e-004      5.287e-005      1.939e-004      1.782e-003      1.508e-002      3.794e-002      3.108e-002      1.902e-002      8.615e-003      3.941e-003 
 17.00      5.696e-004      7.447e-004      1.738e-004      3.374e-005      1.242e-004      1.251e-003      1.126e-002      2.974e-002      2.415e-002      1.535e-002      6.901e-003      2.969e-003 
 17.50      3.834e-004      5.228e-004      1.195e-004      2.153e-005      7.961e-005      8.794e-004      8.426e-003      2.338e-002      1.872e-002      1.239e-002      5.513e-003      2.228e-003 
 18.00      2.582e-004      3.671e-004      8.215e-005      1.375e-005      5.104e-005      6.187e-004      6.308e-003      1.837e-002      1.451e-002      1.000e-002      4.378e-003      1.670e-003 
 18.50      1.739e-004      2.579e-004      5.650e-005      8.783e-006      3.273e-005      4.356e-004      4.723e-003      1.438e-002      1.125e-002      8.074e-003      3.447e-003      1.252e-003 
 19.00      1.172e-004      1.812e-004      3.887e-005      5.613e-006      2.100e-005      3.068e-004      3.539e-003      1.122e-002      8.717e-003      6.508e-003      2.692e-003      9.388e-004 
 19.50      7.901e-005      1.273e-004      2.674e-005      3.588e-006      1.348e-005      2.161e-004      2.654e-003      8.735e-003      6.758e-003      5.231e-003      2.088e-003      7.040e-004 
 20.00      5.327e-005      8.950e-005      1.841e-005      2.295e-006      8.655e-006      1.523e-004      1.994e-003      6.800e-003      5.241e-003      4.184e-003      1.614e-003      5.280e-004 
 20.50      3.593e-005      6.293e-005      1.267e-005      1.468e-006      5.559e-006      1.074e-004      1.504e-003      5.293e-003      4.067e-003      3.322e-003      1.246e-003      3.961e-004 
 21.00      2.424e-005      4.426e-005      8.728e-006      9.396e-007      3.572e-006      7.569e-005      1.141e-003      4.120e-003      3.161e-003      2.618e-003      9.619e-004      2.972e-004 
 21.50      1.636e-005      3.113e-005      6.012e-006      6.016e-007      2.296e-006      5.338e-005      8.709e-004      3.205e-003      2.462e-003      2.051e-003      7.425e-004      2.230e-004 
 22.00      1.104e-005      2.191e-005      4.143e-006      3.853e-007      1.476e-006      3.765e-005      6.682e-004      2.489e-003      1.925e-003      1.600e-003      5.732e-004      1.674e-004 
 22.50      7.457e-006      1.542e-005      2.855e-006      2.469e-007      9.498e-007      2.656e-005      5.145e-004      1.928e-003      1.510e-003      1.246e-003      4.425e-004      1.256e-004 
 23.00      5.037e-006      1.085e-005      1.968e-006      1.583e-007      6.112e-007      1.874e-005      3.970e-004      1.487e-003      1.189e-003      9.702e-004      3.417e-004      9.433e-005 
 23.50      3.403e-006      7.643e-006      1.357e-006      1.015e-007      3.934e-007      1.323e-005      3.065e-004      1.143e-003      9.377e-004      7.552e-004      2.639e-004      7.083e-005 
 24.00      2.300e-006      5.383e-006      9.363e-007      6.510e-008      2.534e-007      9.342e-006      2.367e-004      8.745e-004      7.407e-004      5.878e-004      2.039e-004      5.320e-005 
 24.50      1.555e-006      3.792e-006      6.460e-007      4.177e-008      1.632e-007      6.597e-006      1.829e-004      6.673e-004      5.854e-004      4.576e-004      1.575e-004      3.996e-005 
 25.00      1.052e-006      2.672e-006      4.458e-007      2.682e-008      1.052e-007      4.660e-006      1.413e-004      5.083e-004      4.628e-004      3.563e-004      1.217e-004      3.002e-005 
 25.50      7.114e-007      1.883e-006      3.078e-007      1.722e-008      6.781e-008      3.292e-006      1.092e-004      3.869e-004      3.659e-004      2.775e-004      9.402e-005      2.256e-005 
 26.00      4.813e-007      1.328e-006      2.125e-007      1.106e-008      4.373e-008      2.327e-006      8.437e-005      2.945e-004      2.894e-004      2.161e-004      7.266e-005      1.695e-005 
 26.50      3.258e-007      9.361e-007      1.468e-007      7.109e-009      2.821e-008      1.645e-006      6.521e-005      2.241e-004      2.288e-004      1.683e-004      5.616e-005      1.274e-005 
 27.00      2.206e-007      6.603e-007      1.014e-007      4.570e-009      1.821e-008      1.163e-006      5.041e-005      1.706e-004      1.810e-004      1.311e-004      4.341e-005      9.578e-006 
 27.50      1.494e-007      4.658e-007      7.008e-008      2.939e-009      1.175e-008      8.222e-007      3.897e-005      1.299e-004      1.432e-004      1.022e-004      3.356e-005      7.201e-006 
 28.00      1.012e-007      3.287e-007      4.844e-008      1.891e-009      7.591e-009      5.816e-007      3.014e-005      9.888e-005      1.133e-004      7.960e-005      2.595e-005      5.415e-006 
 28.50      6.857e-008      2.320e-007      3.349e-008      1.217e-009      4.904e-009      4.115e-007      2.330e-005      7.530e-005      8.962e-005      6.203e-005      2.007e-005      4.073e-006 
 29.00      4.648e-008      1.638e-007      2.316e-008      7.833e-010      3.169e-009      2.912e-007      1.802e-005      5.735e-005      7.092e-005      4.835e-005      1.552e-005      3.064e-006 
 29.50      3.151e-008      1.156e-007      1.602e-008      5.044e-010      2.049e-009      2.061e-007      1.394e-005      4.368e-005      5.612e-005      3.769e-005      1.201e-005      2.305e-006 
 30.00      2.137e-008      8.167e-008      1.109e-008      3.250e-010      1.325e-009      1.459e-007      1.079e-005      3.328e-005      4.442e-005      2.938e-005      9.289e-006      1.734e-006 
 30.50      1.450e-008      5.770e-008      7.673e-009      2.094e-010      8.572e-010      1.033e-007      8.346e-006      2.536e-005      3.516e-005      2.291e-005      7.187e-006      1.305e-006 
 31.00      9.837e-009      4.077e-008      5.312e-009      1.350e-010      5.547e-010      7.319e-008      6.458e-006      1.932e-005      2.783e-005      1.786e-005      5.561e-006      9.825e-007 
 31.50      6.677e-009      2.881e-008      3.678e-009      8.707e-011      3.591e-010      5.185e-008      4.998e-006      1.473e-005      2.204e-005      1.393e-005      4.304e-006      7.396e-007 
 32.00      4.533e-009      2.037e-008      2.547e-009      5.617e-011      2.326e-010      3.674e-008      3.869e-006      1.123e-005      1.745e-005      1.087e-005      3.331e-006      5.569e-007 
 32.50      3.078e-009      1.440e-008      1.765e-009      3.625e-011      1.506e-010      2.604e-008      2.995e-006      8.559e-006      1.382e-005      8.475e-006      2.579e-006      4.194e-007 
 33.00      2.091e-009      1.018e-008      1.223e-009      2.340e-011      9.762e-011      1.846e-008      2.319e-006      6.526e-006      1.094e-005      6.612e-006      1.997e-006      3.159e-007 
 33.50      1.421e-009      7.205e-009      8.477e-010      1.511e-011      6.328e-011      1.309e-008      1.795e-006      4.977e-006      8.668e-006      5.159e-006      1.546e-006      2.379e-007 
 34.00      9.657e-010      5.098e-009      5.877e-010      9.760e-012      4.103e-011      9.283e-009      1.390e-006      3.796e-006      6.867e-006      4.026e-006      1.197e-006      1.792e-007 
 34.50      6.566e-010      3.607e-009      4.075e-010      6.307e-012      2.662e-011      6.585e-009      1.077e-006      2.895e-006      5.440e-006      3.142e-006      9.273e-007      1.351e-007 
 35.00      4.465e-010      2.554e-009      2.827e-010      4.077e-012      1.727e-011      4.673e-009      8.342e-007      2.209e-006      4.310e-006      2.452e-006      7.183e-007      1.018e-007 
 35.50      3.037e-010      1.808e-009      1.961e-010      2.636e-012      1.121e-011      3.316e-009      6.462e-007      1.685e-006      3.415e-006      1.914e-006      5.565e-007      7.672e-008 
 36.00      2.066e-010      1.280e-009      1.361e-010      1.705e-012      7.278e-012      2.354e-009      5.007e-007      1.286e-006      2.707e-006      1.494e-006      4.312e-007      5.784e-008 
 36.50      1.406e-010      9.068e-010      9.448e-011      1.103e-012      4.727e-012      1.671e-009      3.880e-007      9.817e-007      2.145e-006      1.167e-006      3.341e-007      4.361e-008 
 37.00      9.573e-011      6.424e-010      6.560e-011      7.140e-013      3.071e-012      1.187e-009      3.007e-007      7.494e-007      1.700e-006      9.112e-007      2.589e-007      3.288e-008 
 37.50      6.518e-011      4.552e-010      4.555e-011      4.623e-013      1.996e-012      8.430e-010      2.331e-007      5.721e-007      1.348e-006      7.116e-007      2.007e-007      2.480e-008 
 38.00      4.439e-011      3.227e-010      3.164e-011      2.994e-013      1.298e-012      5.989e-010      1.807e-007      4.368e-007      1.069e-006      5.558e-007      1.556e-007      1.871e-008 
 38.50      3.024e-011      2.287e-010      2.199e-011      1.939e-013      8.438e-013      4.255e-010      1.401e-007      3.336e-007      8.473e-007      4.342e-007      1.206e-007      1.411e-008 
 39.00      2.061e-011      1.622e-010      1.528e-011      1.257e-013      5.489e-013      3.025e-010      1.086e-007      2.548e-007      6.719e-007      3.392e-007      9.353e-008      1.065e-008 
 39.50      1.405e-011      1.150e-010      1.062e-011      8.145e-014      3.572e-013      2.150e-010      8.423e-008      1.946e-007      5.329e-007      2.650e-007      7.253e-008      8.035e-009 
 40.00      9.578e-012      8.160e-011      7.384e-012      5.280e-014      2.325e-013      1.529e-010      6.532e-008      1.487e-007      4.227e-007      2.071e-007      5.625e-008      6.065e-009 
 40.50      6.532e-012      5.789e-011      5.135e-012      3.424e-014      1.514e-013      1.087e-010      5.067e-008      1.136e-007      3.353e-007      1.619e-007      4.363e-008      4.578e-009 
 41.00      4.456e-012      4.108e-011      3.572e-012      2.220e-014      9.857e-014      7.734e-011      3.931e-008      8.681e-008      2.660e-007      1.265e-007      3.385e-008      3.456e-009 
 41.50      3.040e-012      2.916e-011      2.485e-012      1.440e-014      6.422e-014      5.502e-011      3.050e-008      6.635e-008      2.110e-007      9.890e-008      2.626e-008      2.610e-009 
 42.00      2.075e-012      2.070e-011      1.730e-012      9.334e-015      4.184e-014      3.916e-011      2.366e-008      5.071e-008      1.674e-007      7.732e-008      2.038e-008      1.971e-009 
